# Temperatura_=_-2.116993464052287
# Concentracion g/m^3_=_19900.0
# C_Vs_to_Am_M_A/Vsm_=_254322799225.57578
# pendiente_HvsI_1/m_=_3716.3
# ordenada_HvsI_A/m_=_1297.0
# frecuencia_Hz_=_268067.961785753
# Promedio de 153 ciclos

Tiempo_(s)	Campo_(V.s)	Magnetizacion_(V.s)	Campo_(kA/m)	Magnetizacion_(A/m)
0.000000e+00	-7.331068e-09	-4.183894e-09	-3.825248e+01	-1.055685e+03
1.000000e-08	-7.329678e-09	-4.184303e-09	-3.824522e+01	-1.055653e+03
2.000000e-08	-7.326191e-09	-4.183526e-09	-3.822703e+01	-1.055488e+03
3.000000e-08	-7.320794e-09	-4.183547e-09	-3.819887e+01	-1.055240e+03
4.000000e-08	-7.313584e-09	-4.183786e-09	-3.816125e+01	-1.054963e+03
5.000000e-08	-7.304429e-09	-4.182844e-09	-3.811348e+01	-1.054688e+03
6.000000e-08	-7.293060e-09	-4.182250e-09	-3.805416e+01	-1.054407e+03
7.000000e-08	-7.279452e-09	-4.182455e-09	-3.798315e+01	-1.054066e+03
8.000000e-08	-7.263530e-09	-4.182802e-09	-3.790007e+01	-1.053584e+03
9.000000e-08	-7.245394e-09	-4.176804e-09	-3.780544e+01	-1.052872e+03
1.000000e-07	-7.225128e-09	-4.158914e-09	-3.769970e+01	-1.051881e+03
1.100000e-07	-7.202444e-09	-4.153380e-09	-3.758134e+01	-1.050623e+03
1.200000e-07	-7.177440e-09	-4.163542e-09	-3.745087e+01	-1.049189e+03
1.300000e-07	-7.150600e-09	-4.170101e-09	-3.731082e+01	-1.047747e+03
1.400000e-07	-7.122497e-09	-4.170403e-09	-3.716418e+01	-1.046507e+03
1.500000e-07	-7.092818e-09	-4.139999e-09	-3.700932e+01	-1.045689e+03
1.600000e-07	-7.061346e-09	-4.131304e-09	-3.684511e+01	-1.045475e+03
1.700000e-07	-7.028375e-09	-4.157960e-09	-3.667307e+01	-1.045983e+03
1.800000e-07	-6.993257e-09	-4.123782e-09	-3.648983e+01	-1.047250e+03
1.900000e-07	-6.955889e-09	-4.092952e-09	-3.629485e+01	-1.049239e+03
2.000000e-07	-6.916905e-09	-4.138578e-09	-3.609144e+01	-1.051854e+03
2.100000e-07	-6.876083e-09	-4.143235e-09	-3.587843e+01	-1.054966e+03
2.200000e-07	-6.833135e-09	-4.119133e-09	-3.565433e+01	-1.058425e+03
2.300000e-07	-6.788321e-09	-4.168927e-09	-3.542050e+01	-1.062070e+03
2.400000e-07	-6.741489e-09	-4.183867e-09	-3.517614e+01	-1.065726e+03
2.500000e-07	-6.692480e-09	-4.154794e-09	-3.492042e+01	-1.069194e+03
2.600000e-07	-6.641247e-09	-4.192614e-09	-3.465309e+01	-1.072257e+03
2.700000e-07	-6.587778e-09	-4.203523e-09	-3.437410e+01	-1.074684e+03
2.800000e-07	-6.532553e-09	-4.169347e-09	-3.408594e+01	-1.076259e+03
2.900000e-07	-6.475508e-09	-4.198365e-09	-3.378829e+01	-1.076818e+03
3.000000e-07	-6.416385e-09	-4.226641e-09	-3.347979e+01	-1.076280e+03
3.100000e-07	-6.355437e-09	-4.195306e-09	-3.316177e+01	-1.074672e+03
3.200000e-07	-6.292704e-09	-4.172441e-09	-3.283444e+01	-1.072131e+03
3.300000e-07	-6.228194e-09	-4.172426e-09	-3.249784e+01	-1.068874e+03
3.400000e-07	-6.161827e-09	-4.157541e-09	-3.215154e+01	-1.065161e+03
3.500000e-07	-6.093540e-09	-4.139702e-09	-3.179523e+01	-1.061235e+03
3.600000e-07	-6.023511e-09	-4.131301e-09	-3.142983e+01	-1.057275e+03
3.700000e-07	-5.951844e-09	-4.116212e-09	-3.105588e+01	-1.053373e+03
3.800000e-07	-5.878343e-09	-4.100269e-09	-3.067236e+01	-1.049525e+03
3.900000e-07	-5.802749e-09	-4.087007e-09	-3.027792e+01	-1.045660e+03
4.000000e-07	-5.725205e-09	-4.069535e-09	-2.987331e+01	-1.041676e+03
4.100000e-07	-5.645804e-09	-4.049324e-09	-2.945901e+01	-1.037480e+03
4.200000e-07	-5.564666e-09	-4.028301e-09	-2.903564e+01	-1.033023e+03
4.300000e-07	-5.482069e-09	-4.013853e-09	-2.860466e+01	-1.028306e+03
4.400000e-07	-5.398118e-09	-4.001124e-09	-2.816662e+01	-1.023372e+03
4.500000e-07	-5.312781e-09	-3.980889e-09	-2.772134e+01	-1.018284e+03
4.600000e-07	-5.226098e-09	-3.959871e-09	-2.726904e+01	-1.013096e+03
4.700000e-07	-5.138150e-09	-3.939444e-09	-2.681014e+01	-1.007830e+03
4.800000e-07	-5.048766e-09	-3.915959e-09	-2.634375e+01	-1.002471e+03
4.900000e-07	-4.957787e-09	-3.892658e-09	-2.586903e+01	-9.969761e+02
5.000000e-07	-4.865411e-09	-3.872667e-09	-2.538703e+01	-9.912904e+02
5.100000e-07	-4.771791e-09	-3.850861e-09	-2.489853e+01	-9.853700e+02
5.200000e-07	-4.676956e-09	-3.825629e-09	-2.440369e+01	-9.791964e+02
5.300000e-07	-4.580950e-09	-3.803171e-09	-2.390275e+01	-9.727805e+02
5.400000e-07	-4.483623e-09	-3.779357e-09	-2.339491e+01	-9.661541e+02
5.500000e-07	-4.384826e-09	-3.751134e-09	-2.287940e+01	-9.593534e+02
5.600000e-07	-4.284767e-09	-3.723051e-09	-2.235731e+01	-9.524019e+02
5.700000e-07	-4.183624e-09	-3.694420e-09	-2.182956e+01	-9.452992e+02
5.800000e-07	-4.081315e-09	-3.665258e-09	-2.129573e+01	-9.380198e+02
5.900000e-07	-3.977966e-09	-3.638366e-09	-2.075646e+01	-9.305212e+02
6.000000e-07	-3.873698e-09	-3.610927e-09	-2.021241e+01	-9.227583e+02
6.100000e-07	-3.768312e-09	-3.578339e-09	-1.966252e+01	-9.146978e+02
6.200000e-07	-3.661641e-09	-3.543545e-09	-1.910593e+01	-9.063261e+02
6.300000e-07	-3.553776e-09	-3.509819e-09	-1.854310e+01	-8.976494e+02
6.400000e-07	-3.444840e-09	-3.475689e-09	-1.797469e+01	-8.886853e+02
6.500000e-07	-3.334940e-09	-3.440047e-09	-1.740124e+01	-8.794506e+02
6.600000e-07	-3.224242e-09	-3.402706e-09	-1.682364e+01	-8.699502e+02
6.700000e-07	-3.112756e-09	-3.364126e-09	-1.624192e+01	-8.601712e+02
6.800000e-07	-3.000334e-09	-3.325077e-09	-1.565532e+01	-8.500844e+02
6.900000e-07	-2.886799e-09	-3.285281e-09	-1.506291e+01	-8.396515e+02
7.000000e-07	-2.772080e-09	-3.243090e-09	-1.446432e+01	-8.288359e+02
7.100000e-07	-2.656317e-09	-3.197805e-09	-1.386029e+01	-8.176105e+02
7.200000e-07	-2.539737e-09	-3.151311e-09	-1.325199e+01	-8.059617e+02
7.300000e-07	-2.422441e-09	-3.105411e-09	-1.263996e+01	-7.938866e+02
7.400000e-07	-2.304448e-09	-3.058888e-09	-1.202428e+01	-7.813858e+02
7.500000e-07	-2.185819e-09	-3.009174e-09	-1.140530e+01	-7.684550e+02
7.600000e-07	-2.066605e-09	-2.956101e-09	-1.078325e+01	-7.550786e+02
7.700000e-07	-1.946810e-09	-2.901072e-09	-1.015818e+01	-7.412275e+02
7.800000e-07	-1.826457e-09	-2.844835e-09	-9.530197e+00	-7.268618e+02
7.900000e-07	-1.705580e-09	-2.787112e-09	-8.899475e+00	-7.119369e+02
8.000000e-07	-1.584210e-09	-2.726811e-09	-8.266185e+00	-6.964092e+02
8.100000e-07	-1.462359e-09	-2.663131e-09	-7.630387e+00	-6.802400e+02
8.200000e-07	-1.340029e-09	-2.596900e-09	-6.992086e+00	-6.633955e+02
8.300000e-07	-1.217258e-09	-2.529061e-09	-6.351483e+00	-6.458428e+02
8.400000e-07	-1.094119e-09	-2.458600e-09	-5.708964e+00	-6.275447e+02
8.500000e-07	-9.707094e-10	-2.383544e-09	-5.065028e+00	-6.084552e+02
8.600000e-07	-8.470955e-10	-2.303659e-09	-4.420027e+00	-5.885175e+02
8.700000e-07	-7.233077e-10	-2.220777e-09	-3.774119e+00	-5.676658e+02
8.800000e-07	-5.993645e-10	-2.135804e-09	-3.127400e+00	-5.458298e+02
8.900000e-07	-4.752941e-10	-2.047254e-09	-2.480018e+00	-5.229412e+02
9.000000e-07	-3.511550e-10	-1.953308e-09	-1.832277e+00	-4.989387e+02
9.100000e-07	-2.269899e-10	-1.853938e-09	-1.184400e+00	-4.737724e+02
9.200000e-07	-1.028052e-10	-1.749852e-09	-5.364214e-01	-4.474059e+02
9.300000e-07	2.139291e-11	-1.641299e-09	1.116271e-01	-4.198170e+02
9.400000e-07	1.455939e-10	-1.528263e-09	7.596908e-01	-3.909993e+02
9.500000e-07	2.697740e-10	-1.410226e-09	1.407646e+00	-3.609634e+02
9.600000e-07	3.938897e-10	-1.286656e-09	2.055265e+00	-3.297386e+02
9.700000e-07	5.179063e-10	-1.159093e-09	2.702367e+00	-2.973751e+02
9.800000e-07	6.418112e-10	-1.029155e-09	3.348885e+00	-2.639426e+02
9.900000e-07	7.655915e-10	-8.952701e-10	3.994754e+00	-2.295273e+02
1.000000e-06	8.892146e-10	-7.563267e-10	4.639802e+00	-1.942255e+02
1.010000e-06	1.012634e-09	-6.136686e-10	5.283789e+00	-1.581363e+02
1.020000e-06	1.135808e-09	-4.685204e-10	5.926494e+00	-1.213550e+02
1.030000e-06	1.258681e-09	-3.216054e-10	6.567629e+00	-8.397024e+01
1.040000e-06	1.381170e-09	-1.732954e-10	7.206757e+00	-4.606569e+01
1.050000e-06	1.503210e-09	-2.305408e-11	7.843541e+00	-7.725946e+00
1.060000e-06	1.624776e-09	1.293347e-10	8.477858e+00	3.095500e+01
1.070000e-06	1.745870e-09	2.827524e-10	9.109705e+00	6.986636e+01
1.080000e-06	1.866477e-09	4.359159e-10	9.739015e+00	1.088771e+02
1.090000e-06	1.986565e-09	5.887275e-10	1.036562e+01	1.478385e+02
1.100000e-06	2.106099e-09	7.411757e-10	1.098933e+01	1.865922e+02
1.110000e-06	2.225069e-09	8.924487e-10	1.161010e+01	2.249824e+02
1.120000e-06	2.343486e-09	1.040873e-09	1.222798e+01	2.628672e+02
1.130000e-06	2.461310e-09	1.185604e-09	1.284277e+01	3.001279e+02
1.140000e-06	2.578457e-09	1.327890e-09	1.345403e+01	3.366715e+02
1.150000e-06	2.694854e-09	1.468434e-09	1.406137e+01	3.724275e+02
1.160000e-06	2.810385e-09	1.606049e-09	1.466420e+01	4.073406e+02
1.170000e-06	2.924877e-09	1.739296e-09	1.526160e+01	4.413609e+02
1.180000e-06	3.038252e-09	1.868138e-09	1.585317e+01	4.744363e+02
1.190000e-06	3.150579e-09	1.993312e-09	1.643928e+01	5.065075e+02
1.200000e-06	3.261970e-09	2.114944e-09	1.702050e+01	5.375077e+02
1.210000e-06	3.372496e-09	2.232344e-09	1.759721e+01	5.673652e+02
1.220000e-06	3.482132e-09	2.344627e-09	1.816927e+01	5.960079e+02
1.230000e-06	3.590845e-09	2.451355e-09	1.873653e+01	6.233680e+02
1.240000e-06	3.698645e-09	2.552812e-09	1.929901e+01	6.493860e+02
1.250000e-06	3.805404e-09	2.649230e-09	1.985606e+01	6.740141e+02
1.260000e-06	3.910909e-09	2.740035e-09	2.040658e+01	6.972201e+02
1.270000e-06	4.015131e-09	2.824563e-09	2.095039e+01	7.189916e+02
1.280000e-06	4.118190e-09	2.903303e-09	2.148814e+01	7.393406e+02
1.290000e-06	4.220126e-09	2.977005e-09	2.202002e+01	7.583079e+02
1.300000e-06	4.320933e-09	3.045755e-09	2.254602e+01	7.759640e+02
1.310000e-06	4.420622e-09	3.109743e-09	2.306619e+01	7.924062e+02
1.320000e-06	4.519016e-09	3.169452e-09	2.357959e+01	8.077509e+02
1.330000e-06	4.615924e-09	3.225204e-09	2.408524e+01	8.221205e+02
1.340000e-06	4.711451e-09	3.277580e-09	2.458369e+01	8.356305e+02
1.350000e-06	4.805755e-09	3.327355e-09	2.507575e+01	8.483775e+02
1.360000e-06	4.898862e-09	3.374666e-09	2.556157e+01	8.604331e+02
1.370000e-06	4.990815e-09	3.419138e-09	2.604137e+01	8.718437e+02
1.380000e-06	5.081475e-09	3.460494e-09	2.651442e+01	8.826381e+02
1.390000e-06	5.170551e-09	3.499272e-09	2.697921e+01	8.928373e+02
1.400000e-06	5.258095e-09	3.536473e-09	2.743600e+01	9.024650e+02
1.410000e-06	5.344276e-09	3.572091e-09	2.788568e+01	9.115537e+02
1.420000e-06	5.429116e-09	3.605574e-09	2.832836e+01	9.201452e+02
1.430000e-06	5.512650e-09	3.636918e-09	2.876423e+01	9.282860e+02
1.440000e-06	5.594713e-09	3.666415e-09	2.919242e+01	9.360192e+02
1.450000e-06	5.675107e-09	3.694683e-09	2.961191e+01	9.433778e+02
1.460000e-06	5.753853e-09	3.721808e-09	3.002279e+01	9.503812e+02
1.470000e-06	5.830986e-09	3.747107e-09	3.042526e+01	9.570373e+02
1.480000e-06	5.906432e-09	3.770973e-09	3.081893e+01	9.633488e+02
1.490000e-06	5.979973e-09	3.794331e-09	3.120265e+01	9.693211e+02
1.500000e-06	6.051644e-09	3.816946e-09	3.157662e+01	9.749685e+02
1.510000e-06	6.121627e-09	3.838078e-09	3.194178e+01	9.803160e+02
1.520000e-06	6.189976e-09	3.857421e-09	3.229842e+01	9.853953e+02
1.530000e-06	6.256591e-09	3.875212e-09	3.264601e+01	9.902382e+02
1.540000e-06	6.321262e-09	3.892144e-09	3.298345e+01	9.948690e+02
1.550000e-06	6.384087e-09	3.908703e-09	3.331126e+01	9.992992e+02
1.560000e-06	6.445254e-09	3.924814e-09	3.363043e+01	1.003529e+03
1.570000e-06	6.504782e-09	3.940274e-09	3.394104e+01	1.007551e+03
1.580000e-06	6.562408e-09	3.954843e-09	3.424172e+01	1.011360e+03
1.590000e-06	6.618011e-09	3.968681e-09	3.453185e+01	1.014960e+03
1.600000e-06	6.671733e-09	3.981977e-09	3.481216e+01	1.018366e+03
1.610000e-06	6.723387e-09	3.994476e-09	3.508168e+01	1.021603e+03
1.620000e-06	6.772719e-09	4.005953e-09	3.533909e+01	1.024697e+03
1.630000e-06	6.819933e-09	4.016838e-09	3.558545e+01	1.027668e+03
1.640000e-06	6.865354e-09	4.027611e-09	3.582245e+01	1.030521e+03
1.650000e-06	6.909052e-09	4.038079e-09	3.605046e+01	1.033248e+03
1.660000e-06	6.950749e-09	4.048209e-09	3.626802e+01	1.035828e+03
1.670000e-06	6.990375e-09	4.057801e-09	3.647479e+01	1.038243e+03
1.680000e-06	7.028190e-09	4.066333e-09	3.667210e+01	1.040482e+03
1.690000e-06	7.064240e-09	4.074159e-09	3.686021e+01	1.042551e+03
1.700000e-06	7.098301e-09	4.081831e-09	3.703793e+01	1.044473e+03
1.710000e-06	7.130267e-09	4.088955e-09	3.720473e+01	1.046278e+03
1.720000e-06	7.160364e-09	4.095264e-09	3.736177e+01	1.047995e+03
1.730000e-06	7.188714e-09	4.101111e-09	3.750969e+01	1.049638e+03
1.740000e-06	7.215086e-09	4.106734e-09	3.764730e+01	1.051202e+03
1.750000e-06	7.239250e-09	4.112101e-09	3.777339e+01	1.052666e+03
1.760000e-06	7.261404e-09	4.116970e-09	3.788898e+01	1.054001e+03
1.770000e-06	7.281783e-09	4.120967e-09	3.799532e+01	1.055185e+03
1.780000e-06	7.300298e-09	4.124234e-09	3.809192e+01	1.056211e+03
1.790000e-06	7.316688e-09	4.127530e-09	3.817744e+01	1.057093e+03
1.800000e-06	7.330914e-09	4.130793e-09	3.825167e+01	1.057862e+03
1.810000e-06	7.342991e-09	4.133171e-09	3.831469e+01	1.058550e+03
1.820000e-06	7.352715e-09	4.134548e-09	3.836543e+01	1.059180e+03
1.830000e-06	7.360213e-09	4.135399e-09	3.840455e+01	1.059752e+03
1.840000e-06	7.365755e-09	4.136263e-09	3.843347e+01	1.060243e+03
1.850000e-06	7.369371e-09	4.137005e-09	3.845234e+01	1.060617e+03
1.860000e-06	7.370840e-09	4.136988e-09	3.846000e+01	1.060840e+03
1.870000e-06	7.370138e-09	4.136560e-09	3.845634e+01	1.060894e+03
1.880000e-06	7.367559e-09	4.136588e-09	3.844288e+01	1.060796e+03
1.890000e-06	7.363168e-09	4.136078e-09	3.841997e+01	1.060585e+03
1.900000e-06	7.356708e-09	4.134259e-09	3.838626e+01	1.060318e+03
1.910000e-06	7.348198e-09	4.132570e-09	3.834186e+01	1.060041e+03
1.920000e-06	7.337871e-09	4.130849e-09	3.828797e+01	1.059767e+03
1.930000e-06	7.325515e-09	4.127131e-09	3.822350e+01	1.059468e+03
1.940000e-06	7.310903e-09	4.120335e-09	3.814726e+01	1.059073e+03
1.950000e-06	7.294237e-09	4.120519e-09	3.806030e+01	1.058494e+03
1.960000e-06	7.275403e-09	4.136619e-09	3.796203e+01	1.057656e+03
1.970000e-06	7.253576e-09	4.133830e-09	3.784813e+01	1.056535e+03
1.980000e-06	7.228744e-09	4.109204e-09	3.771857e+01	1.055180e+03
1.990000e-06	7.202148e-09	4.087781e-09	3.757979e+01	1.053718e+03
2.000000e-06	7.174961e-09	4.090274e-09	3.743793e+01	1.052343e+03
2.010000e-06	7.146656e-09	4.117581e-09	3.729024e+01	1.051274e+03
2.020000e-06	7.115833e-09	4.093652e-09	3.712941e+01	1.050717e+03
2.030000e-06	7.083000e-09	4.067637e-09	3.695809e+01	1.050828e+03
2.040000e-06	7.048780e-09	4.127991e-09	3.677954e+01	1.051688e+03
2.050000e-06	7.012163e-09	4.160997e-09	3.658848e+01	1.053297e+03
2.060000e-06	6.973246e-09	4.139646e-09	3.638541e+01	1.055589e+03
2.070000e-06	6.932749e-09	4.182397e-09	3.617411e+01	1.058449e+03
2.080000e-06	6.890416e-09	4.214750e-09	3.595322e+01	1.061739e+03
2.090000e-06	6.846466e-09	4.189439e-09	3.572389e+01	1.065303e+03
2.100000e-06	6.800862e-09	4.227145e-09	3.548594e+01	1.068975e+03
2.110000e-06	6.753003e-09	4.257705e-09	3.523622e+01	1.072570e+03
2.120000e-06	6.703177e-09	4.234824e-09	3.497623e+01	1.075879e+03
2.130000e-06	6.651204e-09	4.275599e-09	3.470504e+01	1.078677e+03
2.140000e-06	6.596806e-09	4.306416e-09	3.442120e+01	1.080736e+03
2.150000e-06	6.540649e-09	4.286819e-09	3.412818e+01	1.081859e+03
2.160000e-06	6.482708e-09	4.282666e-09	3.382586e+01	1.081915e+03
2.170000e-06	6.422964e-09	4.278255e-09	3.351412e+01	1.080873e+03
2.180000e-06	6.361477e-09	4.280547e-09	3.319329e+01	1.078812e+03
2.190000e-06	6.297876e-09	4.262661e-09	3.286143e+01	1.075909e+03
2.200000e-06	6.232465e-09	4.240748e-09	3.252012e+01	1.072409e+03
2.210000e-06	6.165391e-09	4.237553e-09	3.217014e+01	1.068570e+03
2.220000e-06	6.096417e-09	4.214499e-09	3.181024e+01	1.064611e+03
2.230000e-06	6.025481e-09	4.198447e-09	3.144011e+01	1.060673e+03
2.240000e-06	5.952678e-09	4.185717e-09	3.106023e+01	1.056801e+03
2.250000e-06	5.878246e-09	4.167398e-09	3.067186e+01	1.052958e+03
2.260000e-06	5.801984e-09	4.153668e-09	3.027393e+01	1.049051e+03
2.270000e-06	5.723636e-09	4.134487e-09	2.986513e+01	1.044978e+03
2.280000e-06	5.643560e-09	4.126131e-09	2.944730e+01	1.040665e+03
2.290000e-06	5.561929e-09	4.104672e-09	2.902136e+01	1.036085e+03
2.300000e-06	5.478856e-09	4.076149e-09	2.858790e+01	1.031260e+03
2.310000e-06	5.394352e-09	4.060693e-09	2.814697e+01	1.026247e+03
2.320000e-06	5.308126e-09	4.038617e-09	2.769705e+01	1.021108e+03
2.330000e-06	5.220369e-09	4.021333e-09	2.723915e+01	1.015883e+03
2.340000e-06	5.131308e-09	4.002458e-09	2.677444e+01	1.010579e+03
2.350000e-06	5.040980e-09	3.979346e-09	2.630312e+01	1.005164e+03
2.360000e-06	4.949395e-09	3.955194e-09	2.582524e+01	9.995873e+02
2.370000e-06	4.856375e-09	3.928978e-09	2.533988e+01	9.937973e+02
2.380000e-06	4.761884e-09	3.908923e-09	2.484684e+01	9.877604e+02
2.390000e-06	4.666062e-09	3.882454e-09	2.434685e+01	9.814720e+02
2.400000e-06	4.569136e-09	3.854953e-09	2.384111e+01	9.749543e+02
2.410000e-06	4.471105e-09	3.828774e-09	2.332959e+01	9.682434e+02
2.420000e-06	4.371884e-09	3.801958e-09	2.281187e+01	9.613715e+02
2.430000e-06	4.271513e-09	3.778183e-09	2.228815e+01	9.543520e+02
2.440000e-06	4.169782e-09	3.748240e-09	2.175733e+01	9.471723e+02
2.450000e-06	4.066685e-09	3.715296e-09	2.121939e+01	9.397975e+02
2.460000e-06	3.962454e-09	3.682796e-09	2.067553e+01	9.321820e+02
2.470000e-06	3.857241e-09	3.652813e-09	2.012654e+01	9.242847e+02
2.480000e-06	3.751063e-09	3.623194e-09	1.957252e+01	9.160809e+02
2.490000e-06	3.643911e-09	3.590005e-09	1.901341e+01	9.075666e+02
2.500000e-06	3.535853e-09	3.554300e-09	1.844958e+01	8.987548e+02
2.510000e-06	3.426821e-09	3.516291e-09	1.788067e+01	8.896643e+02
2.520000e-06	3.316743e-09	3.480236e-09	1.730630e+01	8.803074e+02
2.530000e-06	3.205654e-09	3.443345e-09	1.672665e+01	8.706811e+02
2.540000e-06	3.093565e-09	3.403201e-09	1.614178e+01	8.607644e+02
2.550000e-06	2.980455e-09	3.361184e-09	1.555160e+01	8.505227e+02
2.560000e-06	2.866355e-09	3.318540e-09	1.495623e+01	8.399172e+02
2.570000e-06	2.751346e-09	3.277178e-09	1.435614e+01	8.289149e+02
2.580000e-06	2.635480e-09	3.233821e-09	1.375156e+01	8.174950e+02
2.590000e-06	2.518736e-09	3.185970e-09	1.314241e+01	8.056494e+02
2.600000e-06	2.401092e-09	3.134691e-09	1.252856e+01	7.933779e+02
2.610000e-06	2.282553e-09	3.083238e-09	1.191004e+01	7.806799e+02
2.620000e-06	2.163200e-09	3.032466e-09	1.128727e+01	7.675463e+02
2.630000e-06	2.043200e-09	2.980038e-09	1.066113e+01	7.539553e+02
2.640000e-06	1.922724e-09	2.924316e-09	1.003251e+01	7.398721e+02
2.650000e-06	1.801835e-09	2.865002e-09	9.401724e+00	7.252541e+02
2.660000e-06	1.680516e-09	2.804169e-09	8.768699e+00	7.100562e+02
2.670000e-06	1.558733e-09	2.742676e-09	8.133251e+00	6.942372e+02
2.680000e-06	1.436507e-09	2.678465e-09	7.495493e+00	6.777606e+02
2.690000e-06	1.313939e-09	2.609692e-09	6.855953e+00	6.605939e+02
2.700000e-06	1.191114e-09	2.537540e-09	6.215067e+00	6.427026e+02
2.710000e-06	1.068077e-09	2.464445e-09	5.573075e+00	6.240462e+02
2.720000e-06	9.448352e-10	2.389695e-09	4.930018e+00	6.045734e+02
2.730000e-06	8.214061e-10	2.310371e-09	4.285982e+00	5.842230e+02
2.740000e-06	6.978178e-10	2.225241e-09	3.641115e+00	5.629265e+02
2.750000e-06	5.740720e-10	2.135237e-09	2.995426e+00	5.406138e+02
2.760000e-06	4.502017e-10	2.042512e-09	2.349088e+00	5.172191e+02
2.770000e-06	3.262587e-10	1.947604e-09	1.702371e+00	4.926860e+02
2.780000e-06	2.022948e-10	1.848082e-09	1.055545e+00	4.669707e+02
2.790000e-06	7.834193e-11	1.742106e-09	4.087755e-01	4.400432e+02
2.800000e-06	-4.561191e-11	1.630563e-09	-2.379984e-01	4.118884e+02
2.810000e-06	-1.695658e-10	1.515008e-09	-8.847728e-01	3.825073e+02
2.820000e-06	-2.934895e-10	1.395315e-09	-1.531389e+00	3.519190e+02
2.830000e-06	-4.173367e-10	1.270236e-09	-2.177607e+00	3.201623e+02
2.840000e-06	-5.410453e-10	1.139457e-09	-2.823102e+00	2.872967e+02
2.850000e-06	-6.645870e-10	1.004856e-09	-3.467725e+00	2.534001e+02
2.860000e-06	-7.879683e-10	8.683903e-10	-4.111512e+00	2.185644e+02
2.870000e-06	-9.111912e-10	7.298684e-10	-4.754472e+00	1.828880e+02
2.880000e-06	-1.034220e-09	5.875132e-10	-5.396419e+00	1.464689e+02
2.890000e-06	-1.157008e-09	4.407812e-10	-6.037107e+00	1.093996e+02
2.900000e-06	-1.279516e-09	2.913324e-10	-6.676339e+00	7.176586e+01
2.910000e-06	-1.401704e-09	1.409261e-10	-7.313898e+00	3.365075e+01
2.920000e-06	-1.523537e-09	-9.885193e-12	-7.949605e+00	-4.857809e+00
2.930000e-06	-1.644980e-09	-1.619867e-10	-8.583278e+00	-4.365879e+01
2.940000e-06	-1.766005e-09	-3.160347e-10	-9.214772e+00	-8.263216e+01
2.950000e-06	-1.886608e-09	-4.702960e-10	-9.844059e+00	-1.216380e+02
